
SWEPT_VAR_1 = 75.0    // Syn: Source PP \ NetStim \ PARAMETER \ interval (ms)

t	s.v( 0.05 )
ms	mV
0       	-64.65  
0.4     	-65.51  
0.8     	-66.35  
1.2     	-67.15  
1.6     	-67.92  
2       	-68.66  
2.4     	-69.37  
2.8     	-70.05  
3.2     	-70.7   
3.6     	-71.31  
4       	-71.9   
4.4     	-72.45  
4.8     	-72.98  
5.2     	-73.49  
5.6     	-73.96  
6       	-74.4   
6.4     	-74.82  
6.8     	-75.21  
7.2     	-75.58  
7.6     	-75.93  
8       	-76.26  
8.4     	-76.57  
8.8     	-76.85  
9.2     	-77.11  
9.6     	-77.35  
10      	-77.57  
10.4    	-77.77  
10.8    	-77.95  
11.2    	-78.1   
11.6    	-78.18  
12      	-78.02  
12.4    	-77.24  
12.8    	-73.98  
13.2    	-59.97  
13.6    	5.643   
14      	43.03   
14.4    	30.88   
14.8    	13.72   
15.2    	-4.161  
15.6    	-22.08  
16      	-41.03  
16.4    	-57.23  
16.8    	-67.35  
17.2    	-73.01  
17.6    	-76.16  
18      	-77.97  
18.4    	-79.05  
18.8    	-79.74  
19.2    	-80.19  
19.6    	-80.5   
20      	-80.73  
20.4    	-80.9   
20.8    	-81.02  
21.2    	-81.12  
21.6    	-81.2   
22      	-81.25  
22.4    	-81.28  
22.8    	-81.3   
23.2    	-81.3   
23.6    	-81.29  
24      	-81.27  
24.4    	-81.24  
24.8    	-81.21  
25.2    	-81.18  
25.6    	-81.15  
26      	-81.12  
26.4    	-81.08  
26.8    	-81.04  
27.2    	-81     
27.6    	-80.94  
28      	-80.89  
28.4    	-80.82  
28.8    	-80.66  
29.2    	-80.19  
29.6    	-78.92  
30      	-74.18  
30.4    	-55.72  
30.8    	26.22   
31.2    	41.8    
31.6    	28.4    
32      	10.98   
32.4    	-6.808  
32.8    	-24.86  
33.2    	-43.65  
33.6    	-58.97  
34      	-68.29  
34.4    	-73.5   
34.8    	-76.41  
35.2    	-78.09  
35.6    	-79.1   
36      	-79.74  
36.4    	-80.16  
36.8    	-80.44  
37.2    	-80.64  
37.6    	-80.78  
38      	-80.88  
38.4    	-80.96  
38.8    	-81.01  
39.2    	-81.05  
39.6    	-81.06  
40      	-81.07  
40.4    	-81.08  
40.8    	-81.08  
41.2    	-81.08  
41.6    	-81.08  
42      	-81.08  
42.4    	-81.08  
42.8    	-81.08  
43.2    	-81.08  
43.6    	-81.08  
44      	-81.08  
44.4    	-81.07  
44.8    	-81.06  
45.2    	-81.04  
45.6    	-81.03  
46      	-81.01  
46.4    	-80.99  
46.8    	-80.97  
47.2    	-80.96  
47.6    	-80.94  
48      	-80.93  
48.4    	-80.92  
48.8    	-80.9   
49.2    	-80.89  
49.6    	-80.88  
50      	-80.88  
50.4    	-80.88  
50.8    	-80.88  
51.2    	-80.89  
51.6    	-80.9   
52      	-80.91  
52.4    	-80.93  
52.8    	-80.95  
53.2    	-80.98  
53.6    	-81.01  
54      	-81.04  
54.4    	-81.08  
54.8    	-81.12  
55.2    	-81.16  
55.6    	-81.2   
56      	-81.24  
56.4    	-81.28  
56.8    	-81.32  
57.2    	-81.35  
57.6    	-81.37  
58      	-81.39  
58.4    	-81.4   
58.8    	-81.41  
59.2    	-81.4   
59.6    	-81.39  
60      	-81.37  
60.4    	-81.35  
60.8    	-81.32  
61.2    	-81.3   
61.6    	-81.28  
62      	-81.27  
62.4    	-81.26  
62.8    	-81.25  
63.2    	-81.25  
63.6    	-81.25  
64      	-81.25  
64.4    	-81.26  
64.8    	-81.28  
65.2    	-81.29  
65.6    	-81.32  
66      	-81.34  
66.4    	-81.37  
66.8    	-81.4   
67.2    	-81.43  
67.6    	-81.45  
68      	-81.47  
68.4    	-81.48  
68.8    	-81.49  
69.2    	-81.51  
69.6    	-81.52  
70      	-81.54  
70.4    	-81.56  
70.8    	-81.58  
71.2    	-81.6   
71.6    	-81.61  
72      	-81.63  
72.4    	-81.64  
72.8    	-81.65  
73.2    	-81.65  
73.6    	-81.65  
74      	-81.64  
74.4    	-81.62  
74.8    	-81.6   
75.2    	-81.58  
75.6    	-81.56  
76      	-81.55  
76.4    	-81.54  
76.8    	-81.54  
77.2    	-81.54  
77.6    	-81.54  
78      	-81.55  
78.4    	-81.56  
78.8    	-81.57  
79.2    	-81.58  
79.6    	-81.58  
80      	-81.59  
80.4    	-81.59  
80.8    	-81.59  
81.2    	-81.6   
81.6    	-81.61  
82      	-81.61  
82.4    	-81.6   
82.8    	-81.59  
83.2    	-81.58  
83.6    	-81.57  
84      	-81.55  
84.4    	-81.54  
84.8    	-81.52  
85.2    	-81.51  
85.6    	-81.51  
86      	-81.5   
86.4    	-81.5   
86.8    	-81.51  
87.2    	-81.52  
87.6    	-81.53  
88      	-81.54  
88.4    	-81.56  
88.8    	-81.58  
89.2    	-81.59  
89.6    	-81.61  
90      	-81.62  
90.4    	-81.64  
90.8    	-81.66  
91.2    	-81.68  
91.6    	-81.69  
92      	-81.71  
92.4    	-81.72  
92.8    	-81.74  
93.2    	-81.76  
93.6    	-81.78  
94      	-81.8   
94.4    	-81.83  
94.8    	-81.85  
95.2    	-81.88  
95.6    	-81.9   
96      	-81.91  
96.4    	-81.91  
96.8    	-81.9   
97.2    	-81.88  
97.6    	-81.86  
98      	-81.84  
98.4    	-81.83  
98.8    	-81.81  
99.2    	-81.8   
99.6    	-81.79  
100     	-81.78  
100.4   	-81.77  
100.8   	-81.76  
101.2   	-81.76  
101.6   	-81.75  
102     	-81.74  
102.4   	-81.73  
102.8   	-81.72  
103.2   	-81.71  
103.6   	-81.71  
104     	-81.7   
104.4   	-81.7   
104.8   	-81.7   
105.2   	-81.7   
105.6   	-81.7   
106     	-81.7   
106.4   	-81.7   
106.8   	-81.71  
107.2   	-81.71  
107.6   	-81.71  
108     	-81.72  
108.4   	-81.73  
108.8   	-81.74  
109.2   	-81.74  
109.6   	-81.74  
110     	-81.74  
110.4   	-81.74  
110.8   	-81.74  
111.2   	-81.74  
111.6   	-81.72  
112     	-81.7   
112.4   	-81.68  
112.8   	-81.65  
113.2   	-81.62  
113.6   	-81.59  
114     	-81.55  
114.4   	-81.53  
114.8   	-81.5   
115.2   	-81.48  
115.6   	-81.46  
116     	-81.45  
116.4   	-81.44  
116.8   	-81.43  
117.2   	-81.42  
117.6   	-81.41  
118     	-81.41  
118.4   	-81.41  
118.8   	-81.41  
119.2   	-81.42  
119.6   	-81.43  
120     	-81.45  
120.4   	-81.47  
120.8   	-81.49  
121.2   	-81.52  
121.6   	-81.55  
122     	-81.57  
122.4   	-81.59  
122.8   	-81.61  
123.2   	-81.63  
123.6   	-81.64  
124     	-81.66  
124.4   	-81.68  
124.8   	-81.7   
125.2   	-81.72  
125.6   	-81.75  
126     	-81.77  
126.4   	-81.8   
126.8   	-81.83  
127.2   	-81.85  
127.6   	-81.88  
128     	-81.9   
128.4   	-81.92  
128.8   	-81.94  
129.2   	-81.96  
129.6   	-81.98  
130     	-82     
130.4   	-82.01  
130.8   	-82.02  
131.2   	-82.02  
131.6   	-82.01  
132     	-82     
132.4   	-81.97  
132.8   	-81.95  
133.2   	-81.93  
133.6   	-81.91  
134     	-81.88  
134.4   	-81.86  
134.8   	-81.83  
135.2   	-81.81  
135.6   	-81.8   
136     	-81.78  
136.4   	-81.77  
136.8   	-81.76  
137.2   	-81.74  
137.6   	-81.72  
138     	-81.69  
138.4   	-81.65  
138.8   	-81.62  
139.2   	-81.59  
139.6   	-81.56  
140     	-81.54  
140.4   	-81.51  
140.8   	-81.49  
141.2   	-81.46  
141.6   	-81.43  
142     	-81.4   
142.4   	-81.38  
142.8   	-81.36  
143.2   	-81.33  
143.6   	-81.31  
144     	-81.29  
144.4   	-81.28  
144.8   	-81.26  
145.2   	-81.24  
145.6   	-81.2   
146     	-81.16  
146.4   	-81.11  
146.8   	-81.07  
147.2   	-81.02  
147.6   	-80.98  
148     	-80.94  
148.4   	-80.9   
148.8   	-80.84  
149.2   	-80.66  
149.6   	-80.11  
150     	-78.57  
150.4   	-72.68  
150.8   	-50.07  
151.2   	36.68   
151.6   	40.3    
152     	25.84   
152.4   	8.189   
152.8   	-9.546  
153.2   	-27.83  
153.6   	-46.43  
154     	-60.83  
154.4   	-69.35  
154.8   	-74.09  
155.2   	-76.75  
155.6   	-78.29  
156     	-79.23  
156.4   	-79.83  
156.8   	-80.23  
157.2   	-80.5   
157.6   	-80.68  
158     	-80.82  
158.4   	-80.92  
158.8   	-80.99  
159.2   	-81.04  
159.6   	-81.07  
160     	-81.08  
160.4   	-81.08  
160.8   	-81.07  
161.2   	-81.06  
161.6   	-81.05  
162     	-81.03  
162.4   	-81     
162.8   	-80.97  
163.2   	-80.93  
163.6   	-80.89  
164     	-80.84  
164.4   	-80.79  
164.8   	-80.73  
165.2   	-80.66  
165.6   	-80.58  
166     	-80.51  
166.4   	-80.44  
166.8   	-80.38  
167.2   	-80.33  
167.6   	-80.28  
168     	-80.24  
168.4   	-80.21  
168.8   	-80.19  
169.2   	-80.17  
169.6   	-80.15  
170     	-80.14  
170.4   	-80.13  
170.8   	-80.12  
171.2   	-80.11  
171.6   	-80.1   
172     	-80.08  
172.4   	-80.06  
172.8   	-80.05  
173.2   	-80.04  
173.6   	-80.03  
174     	-80.02  
174.4   	-80.02  
174.8   	-80.01  
175.2   	-79.99  
175.6   	-79.98  
176     	-79.97  
176.4   	-79.95  
176.8   	-79.94  
177.2   	-79.93  
177.6   	-79.93  
178     	-79.93  
178.4   	-79.94  
178.8   	-79.95  
179.2   	-79.97  
179.6   	-79.99  
180     	-80.01  
180.4   	-80.03  
180.8   	-80.04  
181.2   	-80.06  
181.6   	-80.07  
182     	-80.08  
182.4   	-80.09  
182.8   	-80.1   
183.2   	-80.11  
183.6   	-80.13  
184     	-80.16  
184.4   	-80.18  
184.8   	-80.19  
185.2   	-80.21  
185.6   	-80.23  
186     	-80.26  
186.4   	-80.28  
186.8   	-80.31  
187.2   	-80.35  
187.6   	-80.38  
188     	-80.4   
188.4   	-80.43  
188.8   	-80.45  
189.2   	-80.46  
189.6   	-80.49  
190     	-80.51  
190.4   	-80.52  
190.8   	-80.53  
191.2   	-80.53  
191.6   	-80.53  
192     	-80.53  
192.4   	-80.53  
192.8   	-80.53  
193.2   	-80.53  
193.6   	-80.53  
194     	-80.53  
194.4   	-80.52  
194.8   	-80.5   
195.2   	-80.48  
195.6   	-80.46  
196     	-80.44  
196.4   	-80.42  
196.8   	-80.4   
197.2   	-80.38  
197.6   	-80.37  
198     	-80.36  
198.4   	-80.34  
198.8   	-80.33  
199.2   	-80.33  
199.6   	-80.32  
200     	-80.31  
200.4   	-80.29  
200.8   	-80.27  
201.2   	-80.25  
201.6   	-80.22  
202     	-80.16  
202.4   	-79.94  
202.8   	-79.27  
203.2   	-77.13  
203.6   	-68.54  
204     	-35.4   
204.4   	43.09   
204.8   	36.56   
205.2   	20.61   
205.6   	2.735   
206     	-14.94  
206.4   	-33.62  
206.8   	-51.45  
207.2   	-63.93  
207.6   	-71.08  
208     	-75.05  
208.4   	-77.29  
208.8   	-78.61  
209.2   	-79.41  
209.6   	-79.92  
210     	-80.26  
210.4   	-80.48  
210.8   	-80.63  
211.2   	-80.73  
211.6   	-80.8   
212     	-80.84  
212.4   	-80.86  
212.8   	-80.87  
213.2   	-80.86  
213.6   	-80.85  
214     	-80.82  
214.4   	-80.8   
214.8   	-80.77  
215.2   	-80.73  
215.6   	-80.64  
216     	-80.32  
216.4   	-79.48  
216.8   	-76.71  
217.2   	-65.89  
217.6   	-23.96  
218     	43.62   
218.4   	34.38   
218.8   	17.9    
219.2   	-0.008134
219.6   	-17.75  
220     	-36.59  
220.4   	-53.85  
220.8   	-65.36  
221.2   	-71.88  
221.6   	-75.5   
222     	-77.56  
222.4   	-78.79  
222.8   	-79.54  
223.2   	-80.04  
223.6   	-80.37  
224     	-80.6   
224.4   	-80.76  
224.8   	-80.88  
225.2   	-80.96  
225.6   	-81.02  
226     	-81.06  
226.4   	-81.09  
226.8   	-81.1   
227.2   	-81.11  
227.6   	-81.1   
228     	-81.09  
228.4   	-81.06  
228.8   	-81.02  
229.2   	-80.99  
229.6   	-80.95  
230     	-80.92  
230.4   	-80.89  
230.8   	-80.86  
231.2   	-80.84  
231.6   	-80.82  
232     	-80.8   
232.4   	-80.78  
232.8   	-80.76  
233.2   	-80.75  
233.6   	-80.73  
234     	-80.72  
234.4   	-80.72  
234.8   	-80.72  
235.2   	-80.72  
235.6   	-80.73  
236     	-80.74  
236.4   	-80.76  
236.8   	-80.78  
237.2   	-80.81  
237.6   	-80.84  
238     	-80.87  
238.4   	-80.91  
238.8   	-80.95  
239.2   	-80.99  
239.6   	-81.02  
240     	-81.06  
240.4   	-81.09  
240.8   	-81.11  
241.2   	-81.13  
241.6   	-81.16  
242     	-81.18  
242.4   	-81.21  
242.8   	-81.23  
243.2   	-81.25  
243.6   	-81.25  
244     	-81.25  
244.4   	-81.25  
244.8   	-81.25  
245.2   	-81.25  
245.6   	-81.24  
246     	-81.23  
246.4   	-81.21  
246.8   	-81.18  
247.2   	-81.15  
247.6   	-81.11  
248     	-81.07  
248.4   	-81.02  
248.8   	-80.97  
249.2   	-80.91  
249.6   	-80.86  
250     	-80.79  
250.4   	-80.73  
250.8   	-80.67  
251.2   	-80.61  
251.6   	-80.55  
252     	-80.49  
252.4   	-80.42  
252.8   	-80.34  
253.2   	-80.15  
253.6   	-79.62  
254     	-78.03  
254.4   	-71.75  
254.8   	-47.43  
255.2   	38.95   
255.6   	39.53   
256     	24.68   
256.4   	6.96    
256.8   	-10.74  
257.2   	-29.1   
257.6   	-47.56  
258     	-61.54  
258.4   	-69.74  
258.8   	-74.31  
259.2   	-76.88  
259.6   	-78.38  
260     	-79.29  
260.4   	-79.87  
260.8   	-80.25  
261.2   	-80.51  
261.6   	-80.69  
262     	-80.83  
262.4   	-80.93  
262.8   	-80.99  
263.2   	-81.04  
263.6   	-81.06  
264     	-81.07  
264.4   	-81.07  
264.8   	-81.07  
265.2   	-81.06  
265.6   	-81.04  
266     	-81.02  
266.4   	-81     
266.8   	-80.98  
267.2   	-80.95  
267.6   	-80.92  
268     	-80.9   
268.4   	-80.87  
268.8   	-80.84  
269.2   	-80.8   
269.6   	-80.75  
270     	-80.69  
270.4   	-80.62  
270.8   	-80.53  
271.2   	-80.29  
271.6   	-79.61  
272     	-77.49  
272.4   	-69.14  
272.8   	-37.28  
273.2   	42.84   
273.6   	37      
274     	21.18   
274.4   	3.317   
274.8   	-14.37  
275.2   	-33.02  
275.6   	-50.97  
276     	-63.65  
276.4   	-70.92  
276.8   	-74.96  
277.2   	-77.24  
277.6   	-78.57  
278     	-79.38  
278.4   	-79.89  
278.8   	-80.23  
279.2   	-80.46  
279.6   	-80.61  
280     	-80.72  
280.4   	-80.79  
280.8   	-80.84  
281.2   	-80.86  
281.6   	-80.87  
282     	-80.87  
282.4   	-80.86  
282.8   	-80.85  
283.2   	-80.83  
283.6   	-80.8   
284     	-80.78  
284.4   	-80.75  
284.8   	-80.72  
285.2   	-80.69  
285.6   	-80.66  
286     	-80.63  
286.4   	-80.59  
286.8   	-80.56  
287.2   	-80.53  
287.6   	-80.51  
288     	-80.49  
288.4   	-80.48  
288.8   	-80.47  
289.2   	-80.46  
289.6   	-80.46  
290     	-80.46  
290.4   	-80.46  
290.8   	-80.47  
291.2   	-80.48  
291.6   	-80.49  
292     	-80.5   
292.4   	-80.51  
292.8   	-80.52  
293.2   	-80.53  
293.6   	-80.55  
294     	-80.57  
294.4   	-80.58  
294.8   	-80.6   
295.2   	-80.62  
295.6   	-80.64  
296     	-80.66  
296.4   	-80.68  
296.8   	-80.69  
297.2   	-80.7   
297.6   	-80.71  
298     	-80.72  
298.4   	-80.73  
298.8   	-80.75  
299.2   	-80.77  
299.6   	-80.78  
300     	-80.79  
300.4   	-80.79  
300.8   	-80.78  
301.2   	-80.77  
301.6   	-80.75  
302     	-80.72  
302.4   	-80.7   
302.8   	-80.69  
303.2   	-80.67  
303.6   	-80.64  
304     	-80.6   
304.4   	-80.56  
304.8   	-80.51  
305.2   	-80.46  
305.6   	-80.4   
306     	-80.36  
306.4   	-80.31  
306.8   	-80.27  
307.2   	-80.24  
307.6   	-80.2   
308     	-80.16  
308.4   	-80.13  
308.8   	-80.1   
309.2   	-80.06  
309.6   	-80.03  
310     	-79.99  
310.4   	-79.96  
310.8   	-79.93  
311.2   	-79.91  
311.6   	-79.89  
312     	-79.89  
312.4   	-79.88  
312.8   	-79.89  
313.2   	-79.9   
313.6   	-79.91  
314     	-79.93  
314.4   	-79.96  
314.8   	-79.99  
315.2   	-80.03  
315.6   	-80.07  
316     	-80.1   
316.4   	-80.14  
316.8   	-80.17  
317.2   	-80.2   
317.6   	-80.23  
318     	-80.27  
318.4   	-80.3   
318.8   	-80.34  
319.2   	-80.38  
319.6   	-80.41  
320     	-80.43  
320.4   	-80.46  
320.8   	-80.49  
321.2   	-80.52  
321.6   	-80.54  
322     	-80.57  
322.4   	-80.6   
322.8   	-80.63  
323.2   	-80.66  
323.6   	-80.7   
324     	-80.73  
324.4   	-80.77  
324.8   	-80.81  
325.2   	-80.85  
325.6   	-80.88  
326     	-80.91  
326.4   	-80.94  
326.8   	-80.97  
327.2   	-80.98  
327.6   	-80.98  
328     	-80.98  
328.4   	-80.98  
328.8   	-80.97  
329.2   	-80.95  
329.6   	-80.94  
330     	-80.92  
330.4   	-80.91  
330.8   	-80.89  
331.2   	-80.88  
331.6   	-80.87  
332     	-80.86  
332.4   	-80.86  
332.8   	-80.86  
333.2   	-80.86  
333.6   	-80.86  
334     	-80.86  
334.4   	-80.87  
334.8   	-80.87  
335.2   	-80.88  
335.6   	-80.89  
336     	-80.87  
336.4   	-80.71  
336.8   	-80.17  
337.2   	-78.64  
337.6   	-72.85  
338     	-50.63  
338.4   	36.06   
338.8   	40.45   
339.2   	26.09   
339.6   	8.45    
340     	-9.295  
340.4   	-27.57  
340.8   	-46.2   
341.2   	-60.69  
341.6   	-69.28  
342     	-74.07  
342.4   	-76.76  
342.8   	-78.33  
343.2   	-79.28  
343.6   	-79.89  
344     	-80.29  
344.4   	-80.56  
344.8   	-80.75  
345.2   	-80.88  
345.6   	-80.97  
346     	-81.03  
346.4   	-81.07  
346.8   	-81.1   
347.2   	-81.13  
347.6   	-81.14  
348     	-81.16  
348.4   	-81.17  
348.8   	-81.18  
349.2   	-81.18  
349.6   	-81.18  
350     	-81.18  
350.4   	-81.17  
350.8   	-81.15  
351.2   	-81.14  
351.6   	-81.11  
352     	-81.08  
352.4   	-81.04  
352.8   	-80.99  
353.2   	-80.94  
353.6   	-80.88  
354     	-80.82  
354.4   	-80.77  
354.8   	-80.72  
355.2   	-80.67  
355.6   	-80.62  
356     	-80.57  
356.4   	-80.53  
356.8   	-80.5   
357.2   	-80.47  
357.6   	-80.44  
358     	-80.42  
358.4   	-80.4   
358.8   	-80.39  
359.2   	-80.38  
359.6   	-80.38  
360     	-80.38  
360.4   	-80.38  
360.8   	-80.37  
361.2   	-80.37  
361.6   	-80.36  
362     	-80.36  
362.4   	-80.36  
362.8   	-80.36  
363.2   	-80.37  
363.6   	-80.38  
364     	-80.39  
364.4   	-80.4   
364.8   	-80.41  
365.2   	-80.42  
365.6   	-80.43  
366     	-80.45  
366.4   	-80.46  
366.8   	-80.47  
367.2   	-80.49  
367.6   	-80.51  
368     	-80.53  
368.4   	-80.55  
368.8   	-80.57  
369.2   	-80.59  
369.6   	-80.61  
370     	-80.63  
370.4   	-80.66  
370.8   	-80.68  
371.2   	-80.71  
371.6   	-80.73  
372     	-80.76  
372.4   	-80.79  
372.8   	-80.81  
373.2   	-80.83  
373.6   	-80.86  
374     	-80.88  
374.4   	-80.9   
374.8   	-80.93  
375.2   	-80.94  
375.6   	-80.96  
376     	-80.97  
376.4   	-80.97  
376.8   	-80.97  
377.2   	-80.97  
377.6   	-80.94  
378     	-80.82  
378.4   	-80.38  
378.8   	-79.18  
379.2   	-74.81  
379.6   	-57.86  
380     	18.5    
380.4   	42.38   
380.8   	29.52   
381.2   	12.22   
381.6   	-5.605  
382     	-23.59  
382.4   	-42.45  
382.8   	-58.16  
383.2   	-67.85  
383.6   	-73.27  
384     	-76.3   
384.4   	-78.05  
384.8   	-79.1   
385.2   	-79.76  
385.6   	-80.2   
386     	-80.48  
386.4   	-80.69  
386.8   	-80.83  
387.2   	-80.93  
387.6   	-81     
388     	-81.05  
388.4   	-81.08  
388.8   	-81.11  
389.2   	-81.12  
389.6   	-81.13  
390     	-81.14  
390.4   	-81.13  
390.8   	-81.12  
391.2   	-81.1   
391.6   	-81.08  
392     	-81.06  
392.4   	-81.03  
392.8   	-81.01  
393.2   	-80.98  
393.6   	-80.94  
394     	-80.9   
394.4   	-80.86  
394.8   	-80.83  
395.2   	-80.79  
395.6   	-80.75  
396     	-80.71  
396.4   	-80.67  
396.8   	-80.64  
397.2   	-80.6   
397.6   	-80.57  
398     	-80.55  
398.4   	-80.52  
398.8   	-80.51  
399.2   	-80.49  
399.6   	-80.48  
400     	-80.48  
400.4   	-80.48  
400.8   	-80.48  
401.2   	-80.49  
401.6   	-80.49  
402     	-80.5   
402.4   	-80.5   
402.8   	-80.49  
403.2   	-80.47  
403.6   	-80.3   
404     	-79.74  
404.4   	-78.06  
404.8   	-71.47  
405.2   	-46.15  
405.6   	39.84   
406     	39.19   
406.4   	24.18   
406.8   	6.435   
407.2   	-11.26  
407.6   	-29.68  
408     	-48.09  
408.4   	-61.89  
408.8   	-69.96  
409.2   	-74.45  
409.6   	-76.99  
410     	-78.48  
410.4   	-79.39  
410.8   	-79.98  
411.2   	-80.39  
411.6   	-80.68  
412     	-80.89  
412.4   	-81.06  
412.8   	-81.19  
413.2   	-81.31  
413.6   	-81.4   
414     	-81.48  
414.4   	-81.55  
414.8   	-81.61  
415.2   	-81.66  
415.6   	-81.7   
416     	-81.73  
416.4   	-81.76  
416.8   	-81.78  
417.2   	-81.81  
417.6   	-81.83  
418     	-81.85  
418.4   	-81.86  
418.8   	-81.88  
419.2   	-81.9   
419.6   	-81.91  
420     	-81.93  
420.4   	-81.95  
420.8   	-81.96  
421.2   	-81.98  
421.6   	-81.99  
422     	-82.01  
422.4   	-82.02  
422.8   	-82.04  
423.2   	-82.06  
423.6   	-82.07  
424     	-82.09  
424.4   	-82.09  
424.8   	-82.08  
425.2   	-82.08  
425.6   	-82.08  
426     	-82.07  
426.4   	-82.06  
426.8   	-82.05  
427.2   	-82.03  
427.6   	-82.01  
428     	-81.99  
428.4   	-81.96  
428.8   	-81.94  
429.2   	-81.92  
429.6   	-81.89  
430     	-81.86  
430.4   	-81.82  
430.8   	-81.79  
431.2   	-81.75  
431.6   	-81.71  
432     	-81.67  
432.4   	-81.63  
432.8   	-81.6   
433.2   	-81.57  
433.6   	-81.55  
434     	-81.53  
434.4   	-81.52  
434.8   	-81.51  
435.2   	-81.5   
435.6   	-81.5   
436     	-81.5   
436.4   	-81.5   
436.8   	-81.51  
437.2   	-81.52  
437.6   	-81.53  
438     	-81.55  
438.4   	-81.57  
438.8   	-81.59  
439.2   	-81.61  
439.6   	-81.63  
440     	-81.65  
440.4   	-81.67  
440.8   	-81.69  
441.2   	-81.71  
441.6   	-81.74  
